Time[s] Voltage[V]
1.700000e-07 6.988687e-01
3.700000e-07 6.993232e-01
5.700000e-07 6.997870e-01
7.700000e-07 7.002517e-01
9.700000e-07 7.007201e-01
1.170000e-06 7.011801e-01
1.370000e-06 7.016516e-01
1.570000e-06 7.021098e-01
1.770000e-06 7.025772e-01
1.970000e-06 7.030355e-01
2.170000e-06 7.035058e-01
2.370000e-06 7.039664e-01
2.570000e-06 7.044374e-01
2.770000e-06 7.048955e-01
2.970000e-06 7.053657e-01
3.170000e-06 7.058245e-01
3.370000e-06 7.062856e-01
3.570000e-06 7.067460e-01
3.770000e-06 7.072097e-01
3.970000e-06 7.076677e-01
4.170000e-06 7.081385e-01
4.370000e-06 7.085922e-01
4.570000e-06 7.090599e-01
4.770000e-06 7.095138e-01
4.970000e-06 7.099987e-01
5.170000e-06 7.104491e-01
5.370000e-06 7.109157e-01
5.570000e-06 7.113710e-01
5.770000e-06 7.118504e-01
5.970000e-06 7.122959e-01
6.170000e-06 7.127655e-01
6.370000e-06 7.132103e-01
6.570000e-06 7.137102e-01
6.770000e-06 7.141793e-01
6.970000e-06 7.146415e-01
7.170000e-06 7.151023e-01
7.370000e-06 7.155656e-01
7.570000e-06 7.160270e-01
7.770000e-06 7.164905e-01
7.970000e-06 7.169496e-01
8.170000e-06 7.174221e-01
8.370000e-06 7.178841e-01
8.570000e-06 7.183482e-01
8.770000e-06 7.188070e-01
8.970000e-06 7.192763e-01
9.170000e-06 7.197322e-01
9.370000e-06 7.201972e-01
9.570000e-06 7.206529e-01
9.770000e-06 7.211378e-01
9.970000e-06 7.216128e-01
1.017000e-05 7.220606e-01
1.037000e-05 7.225180e-01
1.057000e-05 7.229836e-01
1.077000e-05 7.234393e-01
1.097000e-05 7.239004e-01
1.117000e-05 7.243552e-01
1.137000e-05 7.248428e-01
1.157000e-05 7.252976e-01
1.177000e-05 7.257591e-01
1.197000e-05 7.262150e-01
1.217000e-05 7.266843e-01
1.237000e-05 7.271369e-01
1.257000e-05 7.276000e-01
1.277000e-05 7.280495e-01
1.297000e-05 7.285475e-01
1.317000e-05 7.290473e-01
1.337000e-05 7.295053e-01
1.357000e-05 7.299652e-01
1.377000e-05 7.304269e-01
1.397000e-05 7.308879e-01
1.417000e-05 7.313470e-01
1.437000e-05 7.318058e-01
1.457000e-05 7.322855e-01
1.477000e-05 7.327476e-01
1.497000e-05 7.332062e-01
1.517000e-05 7.336633e-01
1.537000e-05 7.341270e-01
1.557000e-05 7.345845e-01
1.577000e-05 7.350433e-01
1.597000e-05 7.354998e-01
1.617000e-05 7.360159e-01
1.637000e-05 7.364734e-01
1.657000e-05 7.369323e-01
1.677000e-05 7.373882e-01
1.697000e-05 7.378530e-01
1.717000e-05 7.383095e-01
1.737000e-05 7.387665e-01
1.757000e-05 7.392242e-01
1.777000e-05 7.397106e-01
1.797000e-05 7.401780e-01
1.817000e-05 7.406240e-01
1.837000e-05 7.410815e-01
1.857000e-05 7.415436e-01
1.877000e-05 7.420030e-01
1.897000e-05 7.424580e-01
1.917000e-05 7.429171e-01
1.937000e-05 7.434430e-01
1.957000e-05 7.439062e-01
1.977000e-05 7.443611e-01
1.997000e-05 7.448231e-01
2.017000e-05 7.452856e-01
2.037000e-05 7.457464e-01
2.057000e-05 7.462035e-01
2.077000e-05 7.466626e-01
2.097000e-05 7.471408e-01
2.117000e-05 7.476042e-01
2.137000e-05 7.480611e-01
2.157000e-05 7.485197e-01
2.177000e-05 7.489830e-01
2.197000e-05 7.494427e-01
2.217000e-05 7.498995e-01
2.237000e-05 7.503579e-01
2.257000e-05 7.508686e-01
2.277000e-05 7.513305e-01
2.297000e-05 7.517883e-01
2.317000e-05 7.522452e-01
2.337000e-05 7.527101e-01
2.357000e-05 7.531688e-01
2.377000e-05 7.536241e-01
2.397000e-05 7.540838e-01
2.417000e-05 7.545661e-01
2.437000e-05 7.550249e-01
2.457000e-05 7.554816e-01
2.477000e-05 7.559413e-01
2.497000e-05 7.564012e-01
2.517000e-05 7.568633e-01
2.537000e-05 7.573162e-01
2.557000e-05 7.577778e-01
2.577000e-05 7.582562e-01
2.597000e-05 7.587195e-01
2.617000e-05 7.591776e-01
2.637000e-05 7.596338e-01
2.657000e-05 7.601011e-01
2.677000e-05 7.605543e-01
2.697000e-05 7.610149e-01
2.717000e-05 7.614683e-01
2.737000e-05 7.619602e-01
2.757000e-05 7.624117e-01
2.777000e-05 7.628701e-01
2.797000e-05 7.633249e-01
2.817000e-05 7.637946e-01
2.837000e-05 7.642464e-01
2.857000e-05 7.647048e-01
2.877000e-05 7.651588e-01
2.897000e-05 7.656881e-01
2.917000e-05 7.661378e-01
2.937000e-05 7.666015e-01
2.957000e-05 7.670613e-01
2.977000e-05 7.675257e-01
2.997000e-05 7.679877e-01
3.017000e-05 7.684502e-01
3.037000e-05 7.689110e-01
3.057000e-05 7.693822e-01
3.077000e-05 7.698474e-01
3.097000e-05 7.703080e-01
3.117000e-05 7.707690e-01
3.137000e-05 7.712321e-01
3.157000e-05 7.716929e-01
3.177000e-05 7.721569e-01
3.197000e-05 7.726241e-01
3.217000e-05 7.731338e-01
3.237000e-05 7.735787e-01
3.257000e-05 7.740380e-01
3.277000e-05 7.744954e-01
3.297000e-05 7.749602e-01
3.317000e-05 7.754155e-01
3.337000e-05 7.758750e-01
3.357000e-05 7.763313e-01
3.377000e-05 7.768195e-01
3.397000e-05 7.772738e-01
3.417000e-05 7.777312e-01
3.437000e-05 7.781931e-01
3.457000e-05 7.786521e-01
3.477000e-05 7.791077e-01
3.497000e-05 7.795649e-01
3.517000e-05 7.800210e-01
3.537000e-05 7.805504e-01
3.557000e-05 7.809944e-01
3.577000e-05 7.814568e-01
3.597000e-05 7.819175e-01
3.617000e-05 7.823819e-01
3.637000e-05 7.828431e-01
3.657000e-05 7.833095e-01
3.677000e-05 7.837661e-01
3.697000e-05 7.842403e-01
3.717000e-05 7.847094e-01
3.737000e-05 7.851631e-01
3.757000e-05 7.856243e-01
3.777000e-05 7.860874e-01
3.797000e-05 7.865511e-01
3.817000e-05 7.870120e-01
3.837000e-05 7.874749e-01
3.857000e-05 7.879810e-01
3.877000e-05 7.884181e-01
3.897000e-05 7.888981e-01
3.917000e-05 7.893544e-01
3.937000e-05 7.898222e-01
3.957000e-05 7.902767e-01
3.977000e-05 7.907363e-01
3.997000e-05 7.912066e-01
4.017000e-05 7.916826e-01
4.037000e-05 7.921339e-01
4.057000e-05 7.925929e-01
4.077000e-05 7.930492e-01
4.097000e-05 7.935172e-01
4.117000e-05 7.939725e-01
4.137000e-05 7.944313e-01
4.157000e-05 7.948878e-01
4.177000e-05 7.954108e-01
4.197000e-05 7.958462e-01
4.217000e-05 7.963103e-01
4.237000e-05 7.967709e-01
4.257000e-05 7.972393e-01
4.277000e-05 7.977001e-01
4.297000e-05 7.981607e-01
4.317000e-05 7.986220e-01
4.337000e-05 7.991002e-01
4.357000e-05 7.995550e-01
4.377000e-05 8.000177e-01
4.397000e-05 8.004794e-01
4.417000e-05 8.009451e-01
4.437000e-05 8.014067e-01
4.457000e-05 8.018676e-01
4.477000e-05 8.023303e-01
4.497000e-05 8.028535e-01
4.517000e-05 8.032984e-01
4.537000e-05 8.037581e-01
4.557000e-05 8.042179e-01
4.577000e-05 8.046826e-01
4.597000e-05 8.051374e-01
4.617000e-05 8.055961e-01
4.637000e-05 8.060533e-01
4.657000e-05 8.065451e-01
4.677000e-05 8.069961e-01
4.697000e-05 8.074545e-01
4.717000e-05 8.079108e-01
4.737000e-05 8.083792e-01
4.757000e-05 8.088336e-01
4.777000e-05 8.092923e-01
4.797000e-05 8.097491e-01
4.817000e-05 8.102554e-01
4.837000e-05 8.107015e-01
4.857000e-05 8.111689e-01
4.877000e-05 8.116287e-01
4.897000e-05 8.120959e-01
4.917000e-05 8.125553e-01
4.937000e-05 8.130170e-01
4.957000e-05 8.134792e-01
4.977000e-05 8.139589e-01
4.997000e-05 8.144126e-01
5.017000e-05 8.148757e-01
5.037000e-05 8.153362e-01
5.057000e-05 8.158031e-01
5.077000e-05 8.162623e-01
5.097000e-05 8.167276e-01
5.117000e-05 8.171520e-01
5.137000e-05 8.176131e-01
5.157000e-05 8.180671e-01
5.177000e-05 8.185254e-01
5.197000e-05 8.189871e-01
5.217000e-05 8.194461e-01
5.237000e-05 8.199099e-01
5.257000e-05 8.203686e-01
5.277000e-05 8.208313e-01
5.297000e-05 8.213041e-01
5.317000e-05 8.217737e-01
5.337000e-05 8.222331e-01
5.357000e-05 8.226983e-01
5.377000e-05 8.231584e-01
5.397000e-05 8.236213e-01
5.417000e-05 8.240802e-01
5.437000e-05 8.245451e-01
5.457000e-05 8.250275e-01
5.477000e-05 8.254855e-01
5.497000e-05 8.259795e-01
5.517000e-05 8.264473e-01
5.537000e-05 8.268975e-01
5.557000e-05 8.273738e-01
5.577000e-05 8.278322e-01
5.597000e-05 8.283037e-01
5.617000e-05 8.287451e-01
5.637000e-05 8.292312e-01
5.657000e-05 8.296917e-01
5.677000e-05 8.301635e-01
5.697000e-05 8.306130e-01
5.717000e-05 8.310911e-01
5.737000e-05 8.315493e-01
5.757000e-05 8.320206e-01
5.777000e-05 8.324493e-01
5.797000e-05 8.329132e-01
5.817000e-05 8.333777e-01
5.837000e-05 8.338342e-01
5.857000e-05 8.342992e-01
5.877000e-05 8.347639e-01
5.897000e-05 8.352249e-01
5.917000e-05 8.356858e-01
5.937000e-05 8.361620e-01
5.957000e-05 8.366298e-01
5.977000e-05 8.370866e-01
5.997000e-05 8.375479e-01
6.017000e-05 8.380109e-01
6.037000e-05 8.384748e-01
6.057000e-05 8.389353e-01
6.077000e-05 8.394172e-01
6.097000e-05 8.398790e-01
6.117000e-05 8.403698e-01
6.137000e-05 8.408309e-01
6.157000e-05 8.412935e-01
6.177000e-05 8.417491e-01
6.197000e-05 8.422237e-01
6.217000e-05 8.426863e-01
6.237000e-05 8.431544e-01
6.257000e-05 8.436025e-01
6.277000e-05 8.440874e-01
6.297000e-05 8.445483e-01
6.317000e-05 8.450139e-01
6.337000e-05 8.454668e-01
6.357000e-05 8.459448e-01
6.377000e-05 8.464058e-01
6.397000e-05 8.468748e-01
6.417000e-05 8.472999e-01
6.437000e-05 8.477744e-01
6.457000e-05 8.482325e-01
6.477000e-05 8.486954e-01
6.497000e-05 8.491540e-01
6.517000e-05 8.496188e-01
6.537000e-05 8.500779e-01
6.557000e-05 8.505407e-01
6.577000e-05 8.510164e-01
6.597000e-05 8.514830e-01
6.617000e-05 8.519436e-01
6.637000e-05 8.524073e-01
6.657000e-05 8.528765e-01
6.677000e-05 8.533302e-01
6.697000e-05 8.537923e-01
6.717000e-05 8.542546e-01
6.737000e-05 8.547371e-01
6.757000e-05 8.552192e-01
6.777000e-05 8.556819e-01
6.797000e-05 8.561492e-01
6.817000e-05 8.566012e-01
6.837000e-05 8.570734e-01
6.857000e-05 8.575407e-01
6.877000e-05 8.580035e-01
6.897000e-05 8.584538e-01
6.917000e-05 8.588800e-01
6.937000e-05 8.593991e-01
6.957000e-05 8.598647e-01
6.977000e-05 8.603222e-01
6.997000e-05 8.607916e-01
7.017000e-05 8.612526e-01
7.037000e-05 8.617228e-01
7.057000e-05 8.621598e-01
7.077000e-05 8.626308e-01
7.097000e-05 8.630917e-01
7.117000e-05 8.635526e-01
7.137000e-05 8.640151e-01
7.157000e-05 8.644768e-01
7.177000e-05 8.649377e-01
7.197000e-05 8.653999e-01
7.217000e-05 8.658776e-01
7.237000e-05 8.663391e-01
7.257000e-05 8.667986e-01
7.277000e-05 8.672607e-01
7.297000e-05 8.677254e-01
7.317000e-05 8.681877e-01
7.337000e-05 8.686638e-01
7.357000e-05 8.691117e-01
7.377000e-05 8.695898e-01
7.397000e-05 8.700698e-01
7.417000e-05 8.705310e-01
7.437000e-05 8.709972e-01
7.457000e-05 8.714557e-01
7.477000e-05 8.719264e-01
7.497000e-05 8.723906e-01
7.517000e-05 8.728568e-01
7.537000e-05 8.733039e-01
7.557000e-05 8.737869e-01
7.577000e-05 8.742479e-01
7.597000e-05 8.747153e-01
7.617000e-05 8.751691e-01
7.637000e-05 8.756450e-01
7.657000e-05 8.761061e-01
7.677000e-05 8.765752e-01
7.697000e-05 8.769977e-01
7.717000e-05 8.774610e-01
7.737000e-05 8.779210e-01
7.757000e-05 8.783820e-01
7.777000e-05 8.788407e-01
7.797000e-05 8.793029e-01
7.817000e-05 8.797627e-01
7.837000e-05 8.802242e-01
7.857000e-05 8.807008e-01
7.877000e-05 8.811676e-01
7.897000e-05 8.816277e-01
7.917000e-05 8.820919e-01
7.937000e-05 8.825478e-01
7.957000e-05 8.830229e-01
7.977000e-05 8.834743e-01
7.997000e-05 8.839481e-01
8.017000e-05 8.844246e-01
8.037000e-05 8.849061e-01
8.057000e-05 8.853690e-01
8.077000e-05 8.858401e-01
8.097000e-05 8.862911e-01
8.117000e-05 8.867650e-01
8.137000e-05 8.872257e-01
8.157000e-05 8.876947e-01
8.177000e-05 8.881405e-01
8.197000e-05 8.886256e-01
8.217000e-05 8.890867e-01
8.237000e-05 8.895546e-01
8.257000e-05 8.900024e-01
8.277000e-05 8.904858e-01
8.297000e-05 8.909441e-01
8.317000e-05 8.914159e-01
8.337000e-05 8.918520e-01
8.357000e-05 8.923097e-01
8.377000e-05 8.927695e-01
8.397000e-05 8.932278e-01
8.417000e-05 8.936934e-01
8.437000e-05 8.941558e-01
8.457000e-05 8.946164e-01
8.477000e-05 8.950785e-01
8.497000e-05 8.955524e-01
8.517000e-05 8.960204e-01
8.537000e-05 8.964816e-01
8.557000e-05 8.969465e-01
8.577000e-05 8.974066e-01
8.597000e-05 8.978672e-01
8.617000e-05 8.983284e-01
8.637000e-05 8.987894e-01
8.657000e-05 8.992753e-01
8.677000e-05 8.997626e-01
8.697000e-05 9.002243e-01
8.717000e-05 9.006887e-01
8.737000e-05 9.011445e-01
8.757000e-05 9.016202e-01
8.777000e-05 9.020814e-01
8.797000e-05 9.025505e-01
8.817000e-05 9.029912e-01
8.837000e-05 9.034796e-01
8.857000e-05 9.039410e-01
8.877000e-05 9.044102e-01
8.897000e-05 9.048606e-01
8.917000e-05 9.053421e-01
8.937000e-05 9.058002e-01
8.957000e-05 9.062741e-01
8.977000e-05 9.067034e-01
8.997000e-05 9.071648e-01
9.017000e-05 9.076250e-01
9.037000e-05 9.080861e-01
9.057000e-05 9.085466e-01
9.077000e-05 9.090091e-01
9.097000e-05 9.094695e-01
9.117000e-05 9.099316e-01
9.137000e-05 9.104074e-01
9.157000e-05 9.108719e-01
9.177000e-05 9.113326e-01
9.197000e-05 9.117975e-01
9.217000e-05 9.122556e-01
9.237000e-05 9.127291e-01
9.257000e-05 9.131812e-01
9.277000e-05 9.136687e-01
9.297000e-05 9.141320e-01
9.317000e-05 9.146070e-01
9.337000e-05 9.150697e-01
9.357000e-05 9.155376e-01
9.377000e-05 9.159907e-01
9.397000e-05 9.164648e-01
9.417000e-05 9.169263e-01
9.437000e-05 9.173953e-01
9.457000e-05 9.178438e-01
9.477000e-05 9.183297e-01
9.497000e-05 9.187862e-01
9.517000e-05 9.192549e-01
9.537000e-05 9.197149e-01
9.557000e-05 9.201850e-01
9.577000e-05 9.206443e-01
9.597000e-05 9.211157e-01
9.617000e-05 9.215594e-01
9.637000e-05 9.220236e-01
9.657000e-05 9.224813e-01
9.677000e-05 9.229432e-01
9.697000e-05 9.234092e-01
9.717000e-05 9.238689e-01
9.737000e-05 9.243295e-01
9.757000e-05 9.247914e-01
9.777000e-05 9.252621e-01
9.797000e-05 9.257307e-01
9.817000e-05 9.261905e-01
9.837000e-05 9.266566e-01
9.857000e-05 9.271153e-01
9.877000e-05 9.275781e-01
9.897000e-05 9.280502e-01
9.917000e-05 9.285023e-01
9.937000e-05 9.289810e-01
9.957000e-05 9.294619e-01
9.977000e-05 9.299233e-01
9.997000e-05 9.303891e-01
1.001700e-04 9.308449e-01
1.003700e-04 9.313178e-01
1.005700e-04 9.317830e-01
1.007700e-04 9.322483e-01
1.009700e-04 9.326961e-01
1.011700e-04 9.331764e-01
1.013700e-04 9.336374e-01
1.015700e-04 9.341067e-01
1.017700e-04 9.345595e-01
1.019700e-04 9.350398e-01
1.021700e-04 9.354988e-01
1.023700e-04 9.359707e-01
1.025700e-04 9.363261e-01
1.027700e-04 9.368153e-01
1.029700e-04 9.372524e-01
1.031700e-04 9.377456e-01
1.033700e-04 9.382067e-01
1.035700e-04 9.386671e-01
1.037700e-04 9.391272e-01
1.039700e-04 9.396094e-01
1.041700e-04 9.400405e-01
1.043700e-04 9.405114e-01
1.045700e-04 9.409811e-01
1.047700e-04 9.414524e-01
1.049700e-04 9.419088e-01
1.051700e-04 9.423862e-01
1.053700e-04 9.428530e-01
1.055700e-04 9.433304e-01
1.057700e-04 9.437369e-01
1.059700e-04 9.442265e-01
1.061700e-04 9.446887e-01
1.063700e-04 9.451618e-01
1.065700e-04 9.456282e-01
1.067700e-04 9.461041e-01
1.069700e-04 9.466008e-01
1.071700e-04 9.470409e-01
1.073700e-04 9.474737e-01
1.075700e-04 9.479614e-01
1.077700e-04 9.484157e-01
1.079700e-04 9.488976e-01
1.081700e-04 9.493685e-01
1.083700e-04 9.498315e-01
1.085700e-04 9.502918e-01
1.087700e-04 9.507686e-01
1.089700e-04 9.512010e-01
1.091700e-04 9.516423e-01
1.093700e-04 9.520929e-01
1.095700e-04 9.525849e-01
1.097700e-04 9.530415e-01
1.099700e-04 9.535082e-01
1.101700e-04 9.539774e-01
1.103700e-04 9.544439e-01
1.105700e-04 9.548830e-01
1.107700e-04 9.553450e-01
1.109700e-04 9.558334e-01
1.111700e-04 9.562949e-01
1.113700e-04 9.567569e-01
1.115700e-04 9.572351e-01
1.117700e-04 9.577023e-01
1.119700e-04 9.581804e-01
1.121700e-04 9.586141e-01
1.123700e-04 9.590760e-01
1.125700e-04 9.595395e-01
1.127700e-04 9.600107e-01
1.129700e-04 9.604711e-01
1.131700e-04 9.609450e-01
1.133700e-04 9.614113e-01
1.135700e-04 9.618839e-01
1.137700e-04 9.623223e-01
1.139700e-04 9.628026e-01
1.141700e-04 9.632624e-01
1.143700e-04 9.637392e-01
1.145700e-04 9.642011e-01
1.147700e-04 9.646718e-01
1.149700e-04 9.651359e-01
1.151700e-04 9.656080e-01
1.153700e-04 9.660134e-01
1.155700e-04 9.664510e-01
1.157700e-04 9.669257e-01
1.159700e-04 9.673894e-01
1.161700e-04 9.678456e-01
1.163700e-04 9.683172e-01
1.165700e-04 9.687935e-01
1.167700e-04 9.692604e-01
1.169700e-04 9.697047e-01
1.171700e-04 9.701742e-01
1.173700e-04 9.706400e-01
1.175700e-04 9.711156e-01
1.177700e-04 9.715748e-01
1.179700e-04 9.720495e-01
1.181700e-04 9.725173e-01
1.183700e-04 9.729908e-01
1.185700e-04 9.734102e-01
1.187700e-04 9.739180e-01
1.189700e-04 9.743786e-01
1.191700e-04 9.748540e-01
1.193700e-04 9.753155e-01
1.195700e-04 9.757867e-01
1.197700e-04 9.762530e-01
1.199700e-04 9.767212e-01
1.201700e-04 9.771520e-01
1.203700e-04 9.776469e-01
1.205700e-04 9.781052e-01
1.207700e-04 9.785777e-01
1.209700e-04 9.790379e-01
1.211700e-04 9.795082e-01
1.213700e-04 9.799723e-01
1.215700e-04 9.804431e-01
1.217700e-04 9.808446e-01
1.219700e-04 9.813015e-01
1.221700e-04 9.817807e-01
1.223700e-04 9.822537e-01
1.225700e-04 9.827088e-01
1.227700e-04 9.831820e-01
1.229700e-04 9.836516e-01
1.231700e-04 9.841255e-01
1.233700e-04 9.845495e-01
1.235700e-04 9.850327e-01
1.237700e-04 9.855184e-01
1.239700e-04 9.859755e-01
1.241700e-04 9.864314e-01
1.243700e-04 9.869100e-01
1.245700e-04 9.873791e-01
1.247700e-04 9.878416e-01
1.249700e-04 9.882594e-01
1.251700e-04 9.887786e-01
1.253700e-04 9.892389e-01
1.255700e-04 9.897130e-01
1.257700e-04 9.901629e-01
1.259700e-04 9.906440e-01
1.261700e-04 9.911023e-01
1.263700e-04 9.915698e-01
1.265700e-04 9.919934e-01
1.267700e-04 9.924959e-01
1.269700e-04 9.929630e-01
1.271700e-04 9.934289e-01
1.273700e-04 9.938860e-01
1.275700e-04 9.943668e-01
1.277700e-04 9.948306e-01
1.279700e-04 9.952937e-01
1.281700e-04 9.957120e-01
1.283700e-04 9.961665e-01
1.285700e-04 9.966342e-01
1.287700e-04 9.971047e-01
1.289700e-04 9.975602e-01
1.291700e-04 9.980280e-01
1.293700e-04 9.985027e-01
1.295700e-04 9.989753e-01
1.297700e-04 9.994145e-01
1.299700e-04 9.998851e-01
1.301700e-04 1.000354e+00
1.303700e-04 1.000827e+00
1.305700e-04 1.001289e+00
1.307700e-04 1.001761e+00
1.309700e-04 1.002231e+00
1.311700e-04 1.002703e+00
1.313700e-04 1.003118e+00
1.315700e-04 1.003638e+00
1.317700e-04 1.004083e+00
1.319700e-04 1.004558e+00
1.321700e-04 1.005011e+00
1.323700e-04 1.005502e+00
1.325700e-04 1.005950e+00
1.327700e-04 1.006435e+00
1.329700e-04 1.006853e+00
1.331700e-04 1.007348e+00
1.333700e-04 1.007804e+00
1.335700e-04 1.008291e+00
1.337700e-04 1.008748e+00
1.339700e-04 1.009210e+00
1.341700e-04 1.009670e+00
1.343700e-04 1.010155e+00
1.345700e-04 1.010548e+00
1.347700e-04 1.011018e+00
1.349700e-04 1.011494e+00
1.351700e-04 1.011966e+00
1.353700e-04 1.012418e+00
1.355700e-04 1.012892e+00
1.357700e-04 1.013359e+00
1.359700e-04 1.013836e+00
1.361700e-04 1.014259e+00
1.363700e-04 1.014738e+00
1.365700e-04 1.015216e+00
1.367700e-04 1.015687e+00
1.369700e-04 1.016145e+00
1.371700e-04 1.016622e+00
1.373700e-04 1.017085e+00
1.375700e-04 1.017563e+00
1.377700e-04 1.017968e+00
1.379700e-04 1.018478e+00
1.381700e-04 1.018948e+00
1.383700e-04 1.019416e+00
1.385700e-04 1.019866e+00
1.387700e-04 1.020349e+00
1.389700e-04 1.020806e+00
1.391700e-04 1.021282e+00
1.393700e-04 1.021702e+00
1.395700e-04 1.022204e+00
1.397700e-04 1.022669e+00
1.399700e-04 1.023133e+00
1.401700e-04 1.023590e+00
1.403700e-04 1.024069e+00
1.405700e-04 1.024528e+00
1.407700e-04 1.025004e+00
1.409700e-04 1.025378e+00
1.411700e-04 1.025843e+00
1.413700e-04 1.026326e+00
1.415700e-04 1.026782e+00
1.417700e-04 1.027243e+00
1.419700e-04 1.027712e+00
1.421700e-04 1.028184e+00
1.423700e-04 1.028656e+00
1.425700e-04 1.029093e+00
1.427700e-04 1.029569e+00
1.429700e-04 1.030037e+00
1.431700e-04 1.030511e+00
1.433700e-04 1.030970e+00
1.435700e-04 1.031444e+00
1.437700e-04 1.031913e+00
1.439700e-04 1.032386e+00
1.441700e-04 1.032794e+00
1.443700e-04 1.033314e+00
1.445700e-04 1.033775e+00
1.447700e-04 1.034246e+00
1.449700e-04 1.034711e+00
1.451700e-04 1.035177e+00
1.453700e-04 1.035640e+00
1.455700e-04 1.036111e+00
1.457700e-04 1.036541e+00
1.459700e-04 1.037035e+00
1.461700e-04 1.037497e+00
1.463700e-04 1.037967e+00
1.465700e-04 1.038422e+00
1.467700e-04 1.038898e+00
1.469700e-04 1.039362e+00
1.471700e-04 1.039832e+00
1.473700e-04 1.040216e+00
1.475700e-04 1.040697e+00
1.477700e-04 1.041172e+00
1.479700e-04 1.041646e+00
1.481700e-04 1.042091e+00
1.483700e-04 1.042565e+00
1.485700e-04 1.043032e+00
1.487700e-04 1.043516e+00
1.489700e-04 1.043948e+00
1.491700e-04 1.044416e+00
1.493700e-04 1.044901e+00
1.495700e-04 1.045444e+00
1.497700e-04 1.045909e+00
1.499700e-04 1.046302e+00
1.501700e-04 1.046761e+00
1.503700e-04 1.047245e+00
1.505700e-04 1.047646e+00
1.507700e-04 1.048161e+00
1.509700e-04 1.048638e+00
1.511700e-04 1.049106e+00
1.513700e-04 1.049563e+00
1.515700e-04 1.050036e+00
1.517700e-04 1.050488e+00
1.519700e-04 1.050950e+00
1.521700e-04 1.051389e+00
1.523700e-04 1.051900e+00
1.525700e-04 1.052345e+00
1.527700e-04 1.052833e+00
1.529700e-04 1.053277e+00
1.531700e-04 1.053745e+00
1.533700e-04 1.054225e+00
1.535700e-04 1.054679e+00
