Time[s] Voltage[V]
1.800000e-07 6.985918e-01
3.800000e-07 6.990521e-01
5.800000e-07 6.995158e-01
7.800000e-07 6.999788e-01
9.800000e-07 7.004420e-01
1.180000e-06 7.009052e-01
1.380000e-06 7.013704e-01
1.580000e-06 7.018319e-01
1.780000e-06 7.022948e-01
1.980000e-06 7.027642e-01
2.180000e-06 7.032244e-01
2.380000e-06 7.036938e-01
2.580000e-06 7.041549e-01
2.780000e-06 7.046218e-01
2.980000e-06 7.050873e-01
3.180000e-06 7.055499e-01
3.380000e-06 7.060119e-01
3.580000e-06 7.064778e-01
3.780000e-06 7.069439e-01
3.980000e-06 7.074059e-01
4.180000e-06 7.078739e-01
4.380000e-06 7.083333e-01
4.580000e-06 7.088000e-01
4.780000e-06 7.092612e-01
4.980000e-06 7.097309e-01
5.180000e-06 7.101902e-01
5.380000e-06 7.106558e-01
5.580000e-06 7.111208e-01
5.780000e-06 7.115882e-01
5.980000e-06 7.120545e-01
6.180000e-06 7.125135e-01
6.380000e-06 7.129844e-01
6.580000e-06 7.134457e-01
6.780000e-06 7.139107e-01
6.980000e-06 7.143737e-01
7.180000e-06 7.148390e-01
7.380000e-06 7.153020e-01
7.580000e-06 7.157670e-01
7.780000e-06 7.162325e-01
7.980000e-06 7.166957e-01
8.180000e-06 7.171577e-01
8.380000e-06 7.176240e-01
8.580000e-06 7.180874e-01
8.780000e-06 7.185543e-01
8.980000e-06 7.190170e-01
9.180000e-06 7.194809e-01
9.380000e-06 7.199468e-01
9.580000e-06 7.204100e-01
9.780000e-06 7.208751e-01
9.980000e-06 7.213387e-01
1.018000e-05 7.218039e-01
1.038000e-05 7.222684e-01
1.058000e-05 7.227332e-01
1.078000e-05 7.231973e-01
1.098000e-05 7.236612e-01
1.118000e-05 7.241262e-01
1.138000e-05 7.245904e-01
1.158000e-05 7.250550e-01
1.178000e-05 7.255192e-01
1.198000e-05 7.259839e-01
1.218000e-05 7.264478e-01
1.238000e-05 7.269128e-01
1.258000e-05 7.273757e-01
1.278000e-05 7.278413e-01
1.298000e-05 7.282965e-01
1.318000e-05 7.287627e-01
1.338000e-05 7.292257e-01
1.358000e-05 7.296914e-01
1.378000e-05 7.301563e-01
1.398000e-05 7.306207e-01
1.418000e-05 7.310849e-01
1.438000e-05 7.315490e-01
1.458000e-05 7.320125e-01
1.478000e-05 7.324764e-01
1.498000e-05 7.329415e-01
1.518000e-05 7.334043e-01
1.538000e-05 7.338679e-01
1.558000e-05 7.343329e-01
1.578000e-05 7.347957e-01
1.598000e-05 7.352608e-01
1.618000e-05 7.357236e-01
1.638000e-05 7.361865e-01
1.658000e-05 7.366532e-01
1.678000e-05 7.371148e-01
1.698000e-05 7.375835e-01
1.718000e-05 7.380465e-01
1.738000e-05 7.385121e-01
1.758000e-05 7.389757e-01
1.778000e-05 7.394403e-01
1.798000e-05 7.399051e-01
1.818000e-05 7.403634e-01
1.838000e-05 7.408342e-01
1.858000e-05 7.412968e-01
1.878000e-05 7.417632e-01
1.898000e-05 7.422277e-01
1.918000e-05 7.426924e-01
1.938000e-05 7.431515e-01
1.958000e-05 7.436194e-01
1.978000e-05 7.440827e-01
1.998000e-05 7.445448e-01
2.018000e-05 7.450094e-01
2.038000e-05 7.454698e-01
2.058000e-05 7.459378e-01
2.078000e-05 7.464012e-01
2.098000e-05 7.468640e-01
2.118000e-05 7.473288e-01
2.138000e-05 7.477902e-01
2.158000e-05 7.482493e-01
2.178000e-05 7.487266e-01
2.198000e-05 7.491897e-01
2.218000e-05 7.496554e-01
2.238000e-05 7.501190e-01
2.258000e-05 7.505783e-01
2.278000e-05 7.510440e-01
2.298000e-05 7.515087e-01
2.318000e-05 7.519730e-01
2.338000e-05 7.524271e-01
2.358000e-05 7.528936e-01
2.378000e-05 7.533557e-01
2.398000e-05 7.538187e-01
2.418000e-05 7.542902e-01
2.438000e-05 7.547606e-01
2.458000e-05 7.552248e-01
2.478000e-05 7.556889e-01
2.498000e-05 7.561440e-01
2.518000e-05 7.566067e-01
2.538000e-05 7.570731e-01
2.558000e-05 7.575361e-01
2.578000e-05 7.579844e-01
2.598000e-05 7.584386e-01
2.618000e-05 7.589047e-01
2.638000e-05 7.593701e-01
2.658000e-05 7.598371e-01
2.678000e-05 7.603053e-01
2.698000e-05 7.607711e-01
2.718000e-05 7.612310e-01
2.738000e-05 7.616951e-01
2.758000e-05 7.621638e-01
2.778000e-05 7.626261e-01
2.798000e-05 7.630915e-01
2.818000e-05 7.635550e-01
2.838000e-05 7.640193e-01
2.858000e-05 7.644832e-01
2.878000e-05 7.649476e-01
2.898000e-05 7.654097e-01
2.918000e-05 7.658741e-01
2.938000e-05 7.663363e-01
2.958000e-05 7.668031e-01
2.978000e-05 7.672639e-01
2.998000e-05 7.677310e-01
3.018000e-05 7.681948e-01
3.038000e-05 7.686585e-01
3.058000e-05 7.691214e-01
3.078000e-05 7.695876e-01
3.098000e-05 7.700474e-01
3.118000e-05 7.705161e-01
3.138000e-05 7.709804e-01
3.158000e-05 7.714333e-01
3.178000e-05 7.718994e-01
3.198000e-05 7.723604e-01
3.218000e-05 7.728323e-01
3.238000e-05 7.732879e-01
3.258000e-05 7.737539e-01
3.278000e-05 7.742187e-01
3.298000e-05 7.746799e-01
3.318000e-05 7.751485e-01
3.338000e-05 7.756098e-01
3.358000e-05 7.760783e-01
3.378000e-05 7.765427e-01
3.398000e-05 7.770080e-01
3.418000e-05 7.774735e-01
3.438000e-05 7.779358e-01
3.458000e-05 7.784013e-01
3.478000e-05 7.788675e-01
3.498000e-05 7.793314e-01
3.518000e-05 7.797972e-01
3.538000e-05 7.802559e-01
3.558000e-05 7.807258e-01
3.578000e-05 7.811817e-01
3.598000e-05 7.816460e-01
3.618000e-05 7.821166e-01
3.638000e-05 7.825758e-01
3.658000e-05 7.830461e-01
3.678000e-05 7.834984e-01
3.698000e-05 7.839715e-01
3.718000e-05 7.844258e-01
3.738000e-05 7.849014e-01
3.758000e-05 7.853628e-01
3.778000e-05 7.858241e-01
3.798000e-05 7.862927e-01
3.818000e-05 7.867454e-01
3.838000e-05 7.872215e-01
3.858000e-05 7.876701e-01
3.878000e-05 7.881326e-01
3.898000e-05 7.885987e-01
3.918000e-05 7.890630e-01
3.938000e-05 7.895299e-01
3.958000e-05 7.899956e-01
3.978000e-05 7.904611e-01
3.998000e-05 7.909225e-01
4.018000e-05 7.913913e-01
4.038000e-05 7.918559e-01
4.058000e-05 7.923201e-01
4.078000e-05 7.927838e-01
4.098000e-05 7.932470e-01
4.118000e-05 7.937100e-01
4.138000e-05 7.941723e-01
4.158000e-05 7.946345e-01
4.178000e-05 7.951033e-01
4.198000e-05 7.955600e-01
4.218000e-05 7.960235e-01
4.238000e-05 7.964904e-01
4.258000e-05 7.969594e-01
4.278000e-05 7.974193e-01
4.298000e-05 7.978894e-01
4.318000e-05 7.983535e-01
4.338000e-05 7.988126e-01
4.358000e-05 7.992821e-01
4.378000e-05 7.997424e-01
4.398000e-05 8.002072e-01
4.418000e-05 8.006712e-01
4.438000e-05 8.011352e-01
4.458000e-05 8.016009e-01
4.478000e-05 8.020657e-01
4.498000e-05 8.025273e-01
4.518000e-05 8.029933e-01
4.538000e-05 8.034575e-01
4.558000e-05 8.039178e-01
4.578000e-05 8.043834e-01
4.598000e-05 8.048488e-01
4.618000e-05 8.053157e-01
4.638000e-05 8.057808e-01
4.658000e-05 8.062443e-01
4.678000e-05 8.067028e-01
4.698000e-05 8.071665e-01
4.718000e-05 8.076353e-01
4.738000e-05 8.080990e-01
4.758000e-05 8.085609e-01
4.778000e-05 8.090244e-01
4.798000e-05 8.094913e-01
4.818000e-05 8.099551e-01
4.838000e-05 8.104216e-01
4.858000e-05 8.108874e-01
4.878000e-05 8.113527e-01
4.898000e-05 8.118130e-01
4.918000e-05 8.122816e-01
4.938000e-05 8.127398e-01
4.958000e-05 8.132044e-01
4.978000e-05 8.136744e-01
4.998000e-05 8.141410e-01
5.018000e-05 8.146051e-01
5.038000e-05 8.150689e-01
5.058000e-05 8.155345e-01
5.078000e-05 8.159988e-01
5.098000e-05 8.164629e-01
5.118000e-05 8.169282e-01
5.138000e-05 8.173313e-01
5.158000e-05 8.177920e-01
5.178000e-05 8.182560e-01
5.198000e-05 8.187198e-01
5.218000e-05 8.191866e-01
5.238000e-05 8.196481e-01
5.258000e-05 8.201122e-01
5.278000e-05 8.205770e-01
5.298000e-05 8.210454e-01
5.318000e-05 8.215081e-01
5.338000e-05 8.219701e-01
5.358000e-05 8.224360e-01
5.378000e-05 8.228973e-01
5.398000e-05 8.233619e-01
5.418000e-05 8.238254e-01
5.438000e-05 8.242898e-01
5.458000e-05 8.247546e-01
5.478000e-05 8.252203e-01
5.498000e-05 8.256841e-01
5.518000e-05 8.261481e-01
5.538000e-05 8.266122e-01
5.558000e-05 8.270800e-01
5.578000e-05 8.275406e-01
5.598000e-05 8.280083e-01
5.618000e-05 8.284692e-01
5.638000e-05 8.289327e-01
5.658000e-05 8.293974e-01
5.678000e-05 8.298616e-01
5.698000e-05 8.303272e-01
5.718000e-05 8.307904e-01
5.738000e-05 8.312592e-01
5.758000e-05 8.317190e-01
5.778000e-05 8.321818e-01
5.798000e-05 8.326468e-01
5.818000e-05 8.331111e-01
5.838000e-05 8.335768e-01
5.858000e-05 8.340401e-01
5.878000e-05 8.345063e-01
5.898000e-05 8.349690e-01
5.918000e-05 8.354361e-01
5.938000e-05 8.359008e-01
5.958000e-05 8.363649e-01
5.978000e-05 8.368295e-01
5.998000e-05 8.372934e-01
6.018000e-05 8.377571e-01
6.038000e-05 8.382210e-01
6.058000e-05 8.386850e-01
6.078000e-05 8.391480e-01
6.098000e-05 8.396097e-01
6.118000e-05 8.400768e-01
6.138000e-05 8.405392e-01
6.158000e-05 8.410045e-01
6.178000e-05 8.414708e-01
6.198000e-05 8.419311e-01
6.218000e-05 8.423994e-01
6.238000e-05 8.428618e-01
6.258000e-05 8.433274e-01
6.278000e-05 8.437918e-01
6.298000e-05 8.442485e-01
6.318000e-05 8.447207e-01
6.338000e-05 8.451842e-01
6.358000e-05 8.456493e-01
6.378000e-05 8.461078e-01
6.398000e-05 8.465778e-01
6.418000e-05 8.470244e-01
6.438000e-05 8.474846e-01
6.458000e-05 8.479536e-01
6.478000e-05 8.484146e-01
6.498000e-05 8.488827e-01
6.518000e-05 8.493446e-01
6.538000e-05 8.498073e-01
6.558000e-05 8.502707e-01
6.578000e-05 8.507361e-01
6.598000e-05 8.512017e-01
6.618000e-05 8.516699e-01
6.638000e-05 8.521325e-01
6.658000e-05 8.525971e-01
6.678000e-05 8.530621e-01
6.698000e-05 8.535276e-01
6.718000e-05 8.539918e-01
6.738000e-05 8.544510e-01
6.758000e-05 8.549210e-01
6.778000e-05 8.553862e-01
6.798000e-05 8.558490e-01
6.818000e-05 8.563112e-01
6.838000e-05 8.567700e-01
6.858000e-05 8.572346e-01
6.878000e-05 8.577001e-01
6.898000e-05 8.581655e-01
6.918000e-05 8.586298e-01
6.938000e-05 8.590988e-01
6.958000e-05 8.595591e-01
6.978000e-05 8.600233e-01
6.998000e-05 8.604881e-01
7.018000e-05 8.609511e-01
7.038000e-05 8.614169e-01
7.058000e-05 8.618771e-01
7.078000e-05 8.623441e-01
7.098000e-05 8.628091e-01
7.118000e-05 8.632725e-01
7.138000e-05 8.637377e-01
7.158000e-05 8.642016e-01
7.178000e-05 8.646657e-01
7.198000e-05 8.651295e-01
7.218000e-05 8.655906e-01
7.238000e-05 8.660573e-01
7.258000e-05 8.665206e-01
7.278000e-05 8.669835e-01
7.298000e-05 8.674491e-01
7.318000e-05 8.679126e-01
7.338000e-05 8.683765e-01
7.358000e-05 8.688402e-01
7.378000e-05 8.693069e-01
7.398000e-05 8.697685e-01
7.418000e-05 8.702261e-01
7.438000e-05 8.706924e-01
7.458000e-05 8.711615e-01
7.478000e-05 8.716263e-01
7.498000e-05 8.720903e-01
7.518000e-05 8.725542e-01
7.538000e-05 8.730123e-01
7.558000e-05 8.734852e-01
7.578000e-05 8.739488e-01
7.598000e-05 8.744136e-01
7.618000e-05 8.748743e-01
7.638000e-05 8.753379e-01
7.658000e-05 8.758026e-01
7.678000e-05 8.762658e-01
7.698000e-05 8.767116e-01
7.718000e-05 8.771720e-01
7.738000e-05 8.776306e-01
7.758000e-05 8.780994e-01
7.778000e-05 8.785691e-01
7.798000e-05 8.790284e-01
7.818000e-05 8.794925e-01
7.838000e-05 8.799565e-01
7.858000e-05 8.804246e-01
7.878000e-05 8.808905e-01
7.898000e-05 8.813486e-01
7.918000e-05 8.818183e-01
7.938000e-05 8.822808e-01
7.958000e-05 8.827465e-01
7.978000e-05 8.832077e-01
7.998000e-05 8.836754e-01
8.018000e-05 8.841303e-01
8.038000e-05 8.845996e-01
8.058000e-05 8.850596e-01
8.078000e-05 8.855269e-01
8.098000e-05 8.859878e-01
8.118000e-05 8.864520e-01
8.138000e-05 8.869159e-01
8.158000e-05 8.873795e-01
8.178000e-05 8.878455e-01
8.198000e-05 8.883126e-01
8.218000e-05 8.887719e-01
8.238000e-05 8.892401e-01
8.258000e-05 8.896994e-01
8.278000e-05 8.901687e-01
8.298000e-05 8.906291e-01
8.318000e-05 8.910962e-01
8.338000e-05 8.915540e-01
8.358000e-05 8.920195e-01
8.378000e-05 8.924845e-01
8.398000e-05 8.929482e-01
8.418000e-05 8.934095e-01
8.438000e-05 8.938746e-01
8.458000e-05 8.943405e-01
8.478000e-05 8.948025e-01
8.498000e-05 8.952652e-01
8.518000e-05 8.957298e-01
8.538000e-05 8.961988e-01
8.558000e-05 8.966576e-01
8.578000e-05 8.971216e-01
8.598000e-05 8.975854e-01
8.618000e-05 8.980498e-01
8.638000e-05 8.985129e-01
8.658000e-05 8.989774e-01
8.678000e-05 8.994583e-01
8.698000e-05 8.999077e-01
8.718000e-05 9.003749e-01
8.738000e-05 9.008338e-01
8.758000e-05 9.013129e-01
8.778000e-05 9.017618e-01
8.798000e-05 9.022418e-01
8.818000e-05 9.026914e-01
8.838000e-05 9.031692e-01
8.858000e-05 9.036265e-01
8.878000e-05 9.040950e-01
8.898000e-05 9.045488e-01
8.918000e-05 9.050249e-01
8.938000e-05 9.054771e-01
8.958000e-05 9.059544e-01
8.978000e-05 9.063982e-01
8.998000e-05 9.068617e-01
9.018000e-05 9.073283e-01
9.038000e-05 9.077895e-01
9.058000e-05 9.082547e-01
9.078000e-05 9.087188e-01
9.098000e-05 9.091833e-01
9.118000e-05 9.096472e-01
9.138000e-05 9.101109e-01
9.158000e-05 9.105753e-01
9.178000e-05 9.110413e-01
9.198000e-05 9.115035e-01
9.218000e-05 9.119682e-01
9.238000e-05 9.124337e-01
9.258000e-05 9.128966e-01
9.278000e-05 9.133642e-01
9.298000e-05 9.138454e-01
9.318000e-05 9.142946e-01
9.338000e-05 9.147624e-01
9.358000e-05 9.152188e-01
9.378000e-05 9.157027e-01
9.398000e-05 9.161678e-01
9.418000e-05 9.166316e-01
9.438000e-05 9.170965e-01
9.458000e-05 9.175445e-01
9.478000e-05 9.180248e-01
9.498000e-05 9.184729e-01
9.518000e-05 9.189532e-01
9.538000e-05 9.194179e-01
9.558000e-05 9.198821e-01
9.578000e-05 9.203466e-01
9.598000e-05 9.208107e-01
9.618000e-05 9.212725e-01
9.638000e-05 9.217206e-01
9.658000e-05 9.221876e-01
9.678000e-05 9.226586e-01
9.698000e-05 9.231174e-01
9.718000e-05 9.235821e-01
9.738000e-05 9.240468e-01
9.758000e-05 9.245115e-01
9.778000e-05 9.249807e-01
9.798000e-05 9.254341e-01
9.818000e-05 9.259021e-01
9.838000e-05 9.263724e-01
9.858000e-05 9.268346e-01
9.878000e-05 9.272999e-01
9.898000e-05 9.277638e-01
9.918000e-05 9.282292e-01
9.938000e-05 9.286983e-01
9.958000e-05 9.291607e-01
9.978000e-05 9.296242e-01
9.998000e-05 9.300889e-01
1.001800e-04 9.305545e-01
1.003800e-04 9.310084e-01
1.005800e-04 9.314838e-01
1.007800e-04 9.319375e-01
1.009800e-04 9.324068e-01
1.011800e-04 9.328770e-01
1.013800e-04 9.333405e-01
1.015800e-04 9.338055e-01
1.017800e-04 9.342672e-01
1.019800e-04 9.347210e-01
1.021800e-04 9.351964e-01
1.023800e-04 9.356487e-01
1.025800e-04 9.360286e-01
1.027800e-04 9.364894e-01
1.029800e-04 9.369540e-01
1.031800e-04 9.374176e-01
1.033800e-04 9.378848e-01
1.035800e-04 9.383471e-01
1.037800e-04 9.388130e-01
1.039800e-04 9.392762e-01
1.041800e-04 9.397407e-01
1.043800e-04 9.402082e-01
1.045800e-04 9.406555e-01
1.047800e-04 9.411369e-01
1.049800e-04 9.416012e-01
1.051800e-04 9.420655e-01
1.053800e-04 9.425309e-01
1.055800e-04 9.429942e-01
1.057800e-04 9.434581e-01
1.059800e-04 9.439227e-01
1.061800e-04 9.443878e-01
1.063800e-04 9.448515e-01
1.065800e-04 9.453177e-01
1.067800e-04 9.457803e-01
1.069800e-04 9.462453e-01
1.071800e-04 9.467088e-01
1.073800e-04 9.471721e-01
1.075800e-04 9.476365e-01
1.077800e-04 9.481026e-01
1.079800e-04 9.485651e-01
1.081800e-04 9.490296e-01
1.083800e-04 9.494939e-01
1.085800e-04 9.499595e-01
1.087800e-04 9.504224e-01
1.089800e-04 9.508861e-01
1.091800e-04 9.513489e-01
1.093800e-04 9.518132e-01
1.095800e-04 9.522773e-01
1.097800e-04 9.527233e-01
1.099800e-04 9.532070e-01
1.101800e-04 9.536637e-01
1.103800e-04 9.541362e-01
1.105800e-04 9.546002e-01
1.107800e-04 9.550647e-01
1.109800e-04 9.555294e-01
1.111800e-04 9.559932e-01
1.113800e-04 9.564548e-01
1.115800e-04 9.569221e-01
1.117800e-04 9.573861e-01
1.119800e-04 9.578507e-01
1.121800e-04 9.583155e-01
1.123800e-04 9.587758e-01
1.125800e-04 9.592436e-01
1.127800e-04 9.597080e-01
1.129800e-04 9.601514e-01
1.131800e-04 9.606348e-01
1.133800e-04 9.610881e-01
1.135800e-04 9.615633e-01
1.137800e-04 9.620301e-01
1.139800e-04 9.624918e-01
1.141800e-04 9.629589e-01
1.143800e-04 9.634211e-01
1.145800e-04 9.638840e-01
1.147800e-04 9.643511e-01
1.149800e-04 9.648125e-01
1.151800e-04 9.652794e-01
1.153800e-04 9.657342e-01
1.155800e-04 9.661981e-01
1.157800e-04 9.666404e-01
1.159800e-04 9.671272e-01
1.161800e-04 9.675946e-01
1.163800e-04 9.680557e-01
1.165800e-04 9.685209e-01
1.167800e-04 9.689838e-01
1.169800e-04 9.694523e-01
1.171800e-04 9.699167e-01
1.173800e-04 9.703711e-01
1.175800e-04 9.708453e-01
1.177800e-04 9.713112e-01
1.179800e-04 9.717722e-01
1.181800e-04 9.722387e-01
1.183800e-04 9.727005e-01
1.185800e-04 9.731667e-01
1.187800e-04 9.736244e-01
1.189800e-04 9.740803e-01
1.191800e-04 9.745515e-01
1.193800e-04 9.750252e-01
1.195800e-04 9.754848e-01
1.197800e-04 9.759527e-01
1.199800e-04 9.764134e-01
1.201800e-04 9.768813e-01
1.203800e-04 9.773455e-01
1.205800e-04 9.777992e-01
1.207800e-04 9.782740e-01
1.209800e-04 9.787405e-01
1.211800e-04 9.792014e-01
1.213800e-04 9.796684e-01
1.215800e-04 9.801299e-01
1.217800e-04 9.805955e-01
1.219800e-04 9.810592e-01
1.221800e-04 9.815244e-01
1.223800e-04 9.819916e-01
1.225800e-04 9.824459e-01
1.227800e-04 9.829034e-01
1.229800e-04 9.833618e-01
1.231800e-04 9.838316e-01
1.233800e-04 9.842942e-01
1.235800e-04 9.847757e-01
1.237800e-04 9.852419e-01
1.239800e-04 9.857058e-01
1.241800e-04 9.861648e-01
1.243800e-04 9.866088e-01
1.245800e-04 9.870902e-01
1.247800e-04 9.875360e-01
1.249800e-04 9.879818e-01
1.251800e-04 9.884629e-01
1.253800e-04 9.889302e-01
1.255800e-04 9.893934e-01
1.257800e-04 9.898782e-01
1.259800e-04 9.903195e-01
1.261800e-04 9.908032e-01
1.263800e-04 9.912480e-01
1.265800e-04 9.917138e-01
1.267800e-04 9.921673e-01
1.269800e-04 9.926381e-01
1.271800e-04 9.931040e-01
1.273800e-04 9.935956e-01
1.275800e-04 9.940419e-01
1.277800e-04 9.945185e-01
1.279800e-04 9.949696e-01
1.281800e-04 9.953943e-01
1.283800e-04 9.958570e-01
1.285800e-04 9.963606e-01
1.287800e-04 9.967867e-01
1.289800e-04 9.972646e-01
1.291800e-04 9.977557e-01
1.293800e-04 9.982159e-01
1.295800e-04 9.986832e-01
1.297800e-04 9.991192e-01
1.299800e-04 9.995803e-01
1.301800e-04 1.000033e+00
1.303800e-04 1.000508e+00
1.305800e-04 1.000976e+00
1.307800e-04 1.001439e+00
1.309800e-04 1.001895e+00
1.311800e-04 1.002367e+00
1.313800e-04 1.002858e+00
1.315800e-04 1.003289e+00
1.317800e-04 1.003752e+00
1.319800e-04 1.004217e+00
1.321800e-04 1.004707e+00
1.323800e-04 1.005144e+00
1.325800e-04 1.005605e+00
1.327800e-04 1.006072e+00
1.329800e-04 1.006572e+00
1.331800e-04 1.007005e+00
1.333800e-04 1.007463e+00
1.335800e-04 1.007933e+00
1.337800e-04 1.008417e+00
1.339800e-04 1.008863e+00
1.341800e-04 1.009319e+00
1.343800e-04 1.009791e+00
1.345800e-04 1.010261e+00
1.347800e-04 1.010716e+00
1.349800e-04 1.011179e+00
1.351800e-04 1.011642e+00
1.353800e-04 1.012092e+00
1.355800e-04 1.012572e+00
1.357800e-04 1.013018e+00
1.359800e-04 1.013500e+00
1.361800e-04 1.013962e+00
1.363800e-04 1.014427e+00
1.365800e-04 1.014898e+00
1.367800e-04 1.015355e+00
1.369800e-04 1.015809e+00
1.371800e-04 1.016292e+00
1.373800e-04 1.016738e+00
1.375800e-04 1.017219e+00
1.377800e-04 1.017688e+00
1.379800e-04 1.018137e+00
1.381800e-04 1.018633e+00
1.383800e-04 1.019091e+00
1.385800e-04 1.019538e+00
1.387800e-04 1.019983e+00
1.389800e-04 1.020451e+00
1.391800e-04 1.020913e+00
1.393800e-04 1.021382e+00
1.395800e-04 1.021843e+00
1.397800e-04 1.022365e+00
1.399800e-04 1.022780e+00
1.401800e-04 1.023229e+00
1.403800e-04 1.023719e+00
1.405800e-04 1.024159e+00
1.407800e-04 1.024647e+00
1.409800e-04 1.025090e+00
1.411800e-04 1.025544e+00
1.413800e-04 1.026034e+00
1.415800e-04 1.026473e+00
1.417800e-04 1.026945e+00
1.419800e-04 1.027407e+00
1.421800e-04 1.027874e+00
1.423800e-04 1.028335e+00
1.425800e-04 1.028797e+00
1.427800e-04 1.029262e+00
1.429800e-04 1.029725e+00
1.431800e-04 1.030194e+00
1.433800e-04 1.030653e+00
1.435800e-04 1.031134e+00
1.437800e-04 1.031587e+00
1.439800e-04 1.032064e+00
1.441800e-04 1.032568e+00
1.443800e-04 1.032989e+00
1.445800e-04 1.033463e+00
1.447800e-04 1.033916e+00
1.449800e-04 1.034377e+00
1.451800e-04 1.034848e+00
1.453800e-04 1.035308e+00
1.455800e-04 1.035776e+00
1.457800e-04 1.036239e+00
1.459800e-04 1.036693e+00
1.461800e-04 1.037167e+00
1.463800e-04 1.037620e+00
1.465800e-04 1.038097e+00
1.467800e-04 1.038545e+00
1.469800e-04 1.039029e+00
1.471800e-04 1.039473e+00
1.473800e-04 1.039990e+00
1.475800e-04 1.040425e+00
1.477800e-04 1.040885e+00
1.479800e-04 1.041342e+00
1.481800e-04 1.041796e+00
1.483800e-04 1.042269e+00
1.485800e-04 1.042723e+00
1.487800e-04 1.043200e+00
1.489800e-04 1.043667e+00
1.491800e-04 1.044136e+00
1.493800e-04 1.044597e+00
1.495800e-04 1.045043e+00
1.497800e-04 1.045531e+00
1.499800e-04 1.046005e+00
1.501800e-04 1.046459e+00
1.503800e-04 1.046934e+00
1.505800e-04 1.047398e+00
1.507800e-04 1.047860e+00
1.509800e-04 1.048320e+00
1.511800e-04 1.048785e+00
1.513800e-04 1.049232e+00
1.515800e-04 1.049717e+00
1.517800e-04 1.050152e+00
1.519800e-04 1.050644e+00
1.521800e-04 1.051104e+00
1.523800e-04 1.051576e+00
1.525800e-04 1.052038e+00
1.527800e-04 1.052503e+00
1.529800e-04 1.052939e+00
1.531800e-04 1.053425e+00
1.533800e-04 1.053872e+00
1.535800e-04 1.054353e+00
